"Plot1"
"Time (sec)","Linear Displacement1 (meter)"
0,-0.42330428714476
0.0399006622516556,-0.41508679720264
0.0798013245033113,-0.406814691337188
0.119701986754967,-0.398491276608619
0.159602649006623,-0.39012005263432
0.199503311258278,-0.38170475661782
0.239403973509934,-0.373249405559126
0.279304635761589,-0.364758335176809
0.319205298013245,-0.356236235165548
0.359105960264901,-0.347688180521079
0.399006622516556,-0.339119658782048
0.438907284768212,-0.330536593158846
0.478807947019867,-0.321945361636827
0.518708609271523,-0.313352812249452
0.558609271523179,-0.304766274810884
0.598509933774834,-0.296193569473474
0.63841059602649,-0.287643012531162
0.678311258278146,-0.279123419923991
0.718211920529801,-0.270644108912192
0.758112582781457,-0.262214898382227
0.798013245033113,-0.253846108224202
0.837913907284768,-0.245548558183178
0.877814569536424,-0.237333566539384
0.91771523178808,-0.229212948917345
0.957615894039735,-0.221199017464305
0.997516556291391,-0.213304580576451
1.03741721854305,-0.205542943289223
1.0773178807947,-0.197927908386423
1.11721854304636,-0.190473778222624
1.15711920529801,-0.183195357194275
1.19701986754967,-0.176107954736441
1.23692052980132,-0.169227388663037
1.27682119205298,-0.162569988607359
1.31672185430464,-0.156152599254759
1.35662251655629,-0.149992582988366
1.39652317880795,-0.144107821489612
1.4364238410596,-0.138516715745384
1.47632450331126,-0.133238183810548
1.51622516556291,-0.128291655555594
1.55612582781457,-0.12369706349195
1.59602649006622,-0.119474828609595
1.63592715231788,-0.115645839980943
1.67582781456954,-0.112231426680151
1.71572847682119,-0.109253320337136
1.75562913907285,-0.106733606391224
1.7955298013245,-0.104694661832632
1.83543046357616,-0.10315907692529
1.87533112582781,-0.102149558099806
1.91523178807947,-0.101688808902407
1.95513245033112,-0.101799385602281
1.99503311258278,-0.102503523820652
2.03493377483444,-0.103822932383842
2.07483443708609,-0.10577855056435
2.11473509933775,-0.108390265016144
2.1546357615894,-0.111676583105485
2.19453642384106,-0.115654260075093
2.23443708609271,-0.120337878662149
2.27433774834437,-0.125739381538553
2.31423841059602,-0.131867559383731
2.35413907284768,-0.138727500664746
2.39403973509934,-0.146320013397953
2.43394039735099,-0.154641034372459
2.47384105960265,-0.163681047521991
2.5137417218543,-0.173424540204857
2.55364238410596,-0.183849533765189
2.59354304635761,-0.19492723230446
2.63344370860927,-0.206621840134096
2.67334437086092,-0.218890602513129
2.71324503311258,-0.231684124123398
2.75314569536424,-0.244947012985149
2.79304635761589,-0.258618881624358
2.83294701986755,-0.272635709969231
2.8728476821192,-0.286931534458596
2.91274834437086,-0.301440376296835
2.95264900662251,-0.316098263622741
2.99254966887417,-0.330845147604339
3.03245033112582,-0.345626476351918
3.07235099337748,-0.360394191151164
3.11225165562914,-0.375106962182773
3.15215231788079,-0.389729589840609
3.19205298013245,-0.404231648310923
3.2319536423841,-0.418585604797655
3.27185430463576,-0.432764763223479
3.31175496688741,-0.446741414519567
3.35165562913907,-0.460485512383625
3.39155629139072,-0.473964054878022
3.43145695364238,-0.487141186378915
3.47135761589404,-0.49997889346928
3.51125827814569,-0.512438086876027
3.55115894039735,-0.524479846248257
3.591059602649,-0.536066639450475
3.63096026490066,-0.547163387471239
3.67086092715231,-0.557738307121965
3.71076158940397,-0.567763512569358
3.75066225165562,-0.577215388833841
3.79056291390728,-0.586074767316624
3.83046357615894,-0.59432693944723
3.87036423841059,-0.601961544062093
3.91026490066225,-0.608972360484495
3.9501655629139,-0.615357034571061
3.99006622516556,-0.621116760306578
4.02996688741721,-0.626255935308747
4.06986754966887,-0.630781804949933
4.10976821192053,-0.634704106675692
4.14966887417218,-0.638034723426312
4.18956953642384,-0.640787352782421
4.22947019867549,-0.642977196512055
4.26937086092715,-0.644620673562179
4.3092715231788,-0.645735158187968
4.34917218543046,-0.646338743825327
4.38907284768211,-0.646450032462052
4.42897350993377,-0.646087948624454
4.46887417218543,-0.645271576640862
4.50877483443708,-0.644020019542746
4.54867549668874,-0.642352277790119
4.58857615894039,-0.640287145934572
4.62847682119205,-0.637843125337196
4.6683774834437,-0.635038351119708
4.70827814569536,-0.631890531628167
4.74817880794701,-0.628416898815946
4.78807947019867,-0.624634168095213
4.82798013245033,-0.620558506355509
4.86788079470198,-0.616205506998081
4.90778145695364,-0.611590170980779
4.94768211920529,-0.606726893007728
4.98758278145695,-0.60162945212868
5.0274834437086,-0.596311006133931
5.06738410596026,-0.590784089241558
5.10728476821191,-0.585060612674412
5.14718543046357,-0.579151867815165
5.18708609271523,-0.573068531709003
5.22698675496688,-0.566820674755824
5.26688741721854,-0.560417770497306
5.30678807947019,-0.553868707459308
5.34668874172185,-0.547181803056855
5.3865894039735,-0.540364819607354
5.42649006622516,-0.533424982527635
5.46639072847681,-0.526369000811338
5.50629139072847,-0.519203089894826
5.54619205298013,-0.511932997021439
5.58609271523178,-0.504564029205067
5.62599337748344,-0.49710108387423
5.66589403973509,-0.489548682246744
5.70579470198675,-0.481911005442813
5.7456953642384,-0.474191933291355
5.78559602649006,-0.466395085721693
5.82549668874171,-0.458523866562131
5.86539735099337,-0.450581509490698
5.90529801324503,-0.442571125804806
5.94519867549668,-0.434495753599342
5.98509933774834,-0.426358407871118
6.02499999999999,-0.418162131006247
6.06490066225165,-0.409910043060133
6.1048013245033,-0.401605391211606
6.14470198675496,-0.393251597766383
6.18460264900661,-0.384852306102559
6.22450331125827,-0.376411423992906
6.26440397350993,-0.367933163804335
6.30430463576158,-0.359422079161361
6.34420529801324,-0.350883097763696
6.38410596026489,-0.34232155016286
6.42400662251655,-0.333743194422913
6.4639072847682,-0.32515423670967
6.50380794701986,-0.316561347964967
6.54370860927151,-0.307971676922338
6.58360927152317,-0.299392859803483
6.62350993377483,-0.29083302709828
6.66341059602648,-0.282300807873268
6.70331125827814,-0.273805332074465
6.74321192052979,-0.265356231291339
6.78311258278145,-0.256963638431675
6.8230132450331,-0.248638186725076
6.86291390728476,-0.240391008428906
6.90281456953641,-0.232233733557886
6.94271523178807,-0.224178488900381
6.98261589403973,-0.216237897523127
7.02251655629138,-0.20842507890386
7.06241721854304,-0.20075364976945
7.10231788079469,-0.193237725656339
7.14221854304635,-0.185891923150668
7.182119205298,-0.178731362706834
7.22201986754966,-0.17177167188457
7.26192052980131,-0.165028988784484
7.30182119205297,-0.158519965398751
7.34172185430463,-0.152261770525196
7.38162251655628,-0.146272091817192
7.42152317880794,-0.140569136456204
7.46142384105959,-0.13517162983592
7.50132450331125,-0.130098811534169
7.5412251655629,-0.125370427718724
7.58112582781456,-0.121006718983114
7.62102649006621,-0.117028402436688
7.66092715231787,-0.113456646677454
7.70082781456953,-0.110313038055753
7.74072847682118,-0.107619536391455
7.78062913907284,-0.105398418038615
7.82052980132449,-0.103672203902827
7.86043046357615,-0.102463569714409
7.9003311258278,-0.101795235555183
7.94023178807946,-0.101689831343449
7.98013245033111,-0.102169734722652
8.02003311258277,-0.103256877604452
8.05993377483443,-0.104972517526771
8.09983443708608,-0.107336970054575
8.13973509933774,-0.11036929874228
8.17963576158939,-0.11408695977434
8.21953642384105,-0.118505399403357
8.2594370860927,-0.123637603827201
8.29933774834436,-0.129493603314053
8.33923841059602,-0.136079935327055
8.37913907284767,-0.14339907523937
8.41903973509933,-0.151448848056192
8.45894039735098,-0.160221840400572
8.49884105960264,-0.169704838795607
8.53874172185429,-0.179878327740779
8.57864238410595,-0.190716088748365
8.6185430463576,-0.202184948564545
8.65844370860926,-0.214244730025897
8.69834437086092,-0.22684846070028
8.73824503311257,-0.239942890467748
8.77814569536423,-0.25346935701595
8.81804635761588,-0.267365015387106
8.85794701986754,-0.281564412473442
8.89784768211919,-0.296001339785381
8.93774834437085,-0.310610841240423
8.9776490066225,-0.325331195168423
9.01754966887416,-0.340105644600036
9.05745033112582,-0.354883634695316
9.09735099337747,-0.369621348108705
9.13725165562913,-0.384281417590086
9.17715231788078,-0.398831833236495
9.21705298013244,-0.413244221459069
9.25695364238409,-0.427491809199507
9.29685430463575,-0.441547454359842
9.3367549668874,-0.455382095639945
9.37665562913906,-0.468963860005382
9.41655629139072,-0.482257903924386
9.45645695364237,-0.49522690891212
9.49635761589403,-0.507832045929027
9.53625827814568,-0.520034184057223
9.57615894039734,-0.531795137812577
9.61605960264899,-0.543078800744534
9.65596026490065,-0.553852075598512
9.6958609271523,-0.56408556572682
9.73576158940396,-0.573754030848622
9.77566225165562,-0.58283663242485
9.81556291390727,-0.591317003469194
9.85546357615893,-0.599183179106331
9.89536423841058,-0.606427421418255
9.93526490066224,-0.61304596763891
9.97516556291389,-0.619038725987246
10.0150662251655,-0.624408939011001
10.0549668874172,-0.62916283044778
10.0948675496689,-0.633309248293995
10.1347682119205,-0.636859313937781
10.1746688741722,-0.639826084788242
10.2145695364238,-0.642224235766606
10.2544701986755,-0.644069763278109
10.2943708609271,-0.645379713830067
10.3342715231788,-0.646171938278708
10.3741721854304,-0.646464871751432
10.4140728476821,-0.64627733857681
10.4539735099338,-0.645628381034198
10.4938741721854,-0.64453711037969
10.5337748344371,-0.643022578386975
10.5736754966887,-0.641103667533576
10.6135761589404,-0.638798997940604
10.653476821192,-0.636126849215987
10.6933774834437,-0.633105095439095
10.7332781456953,-0.629751151643564
10.773178807947,-0.62608193029315
10.8130794701987,-0.622113806393033
10.8529801324503,-0.617862590029474
10.892880794702,-0.613343505278676
10.9327814569536,-0.608571174567975
10.9726821192053,-0.603559607706524
11.0125827814569,-0.598322194927374
11.0524834437086,-0.592871703397486
11.0923841059602,-0.58722027675668
11.1322847682119,-0.581379437341033
11.1721854304636,-0.575360090831037
11.2120860927152,-0.569172533140427
11.2519867549669,-0.562826459428323
11.2918874172185,-0.556330975175564
11.3317880794702,-0.549694609315956
11.3716887417218,-0.542925329454764
11.4115894039735,-0.536030559239836
11.4514900662251,-0.529017197975175
11.4913907284768,-0.52189164258188
11.5312913907285,-0.514659812016897
11.5711920529801,-0.507327174255081
11.6110927152318,-0.499898775924492
11.6509933774834,-0.492379274657916
11.6908940397351,-0.484772974185536
11.7307947019867,-0.477083862144543
11.7706953642384,-0.469315650522303
11.81059602649,-0.461471818581711
11.8504966887417,-0.453555658043001
11.8903973509934,-0.445570320218097
11.930298013245,-0.437518864715478
11.9701986754967,-0.429404309259247
12.0100993377483,-0.421229680100421
12.05,-0.412998062445662
